time,Dendrite passive:1,Input signal,Gain:1,Na prefilter:1,Pulse,Dendrite NL,Soma NL prefilter out,Soma after passive,Vs,Soma input,Input + Vs,Vd,Integrator1:1,Spike Output
0,0,0,0,0,0,0.036564157,0,0,0,0,0,0.036564157,0,0
0.000200951,1.56621E-09,0.0002598,0.00031176,1.04412E-08,0,0.036564158,2.91412E-14,8.7012E-10,8.7012E-10,0.000259802,0.000311761,0.036564159,0,0
0.001205705,5.63831E-08,0.001558802,0.001870563,3.75844E-07,0,0.036564192,6.29374E-12,3.13246E-08,3.13246E-08,0.001558859,0.001870588,0.036564248,0,0
0.006229478,1.50504E-06,0.008053811,0.009664573,1.00277E-05,0,0.036565093,8.67525E-10,8.3623E-07,8.3623E-07,0.008055316,0.009665242,0.036566598,0,0
0.016229478,1.02144E-05,0.020982359,0.025178831,6.79921E-05,0,0.036570506,1.53224E-08,5.67636E-06,5.67636E-06,0.020992574,0.025183372,0.036580721,0,0
0.026229478,2.66775E-05,0.033910908,0.040693089,0.00017741,0,0.036580727,6.46055E-08,1.48279E-05,1.48279E-05,0.033937585,0.040704952,0.036607404,0,0
0.036229478,5.0892E-05,0.046839456,0.056207347,0.000338123,0,0.036595743,1.70049E-07,2.82919E-05,2.82919E-05,0.046890348,0.056229981,0.036646635,0,0
0.046229478,8.28559E-05,0.059768004,0.071721605,0.00054997,0,0.036615547,3.52885E-07,4.60696E-05,4.60696E-05,0.05985086,0.071758461,0.036698403,0,0
0.056229478,0.000122567,0.072696553,0.087235863,0.000812793,0,0.036640131,6.34244E-07,6.81622E-05,6.81622E-05,0.07281912,0.087290393,0.036762698,0,0
0.066229478,0.000170023,0.085625101,0.102750121,0.001126434,0,0.03666949,1.03516E-06,9.45706E-05,9.45706E-05,0.085795124,0.102825778,0.036839513,0,0
0.076229478,0.000225222,0.098553649,0.118264379,0.001490736,0,0.03670362,1.57656E-06,0.000125296,0.000125296,0.098778871,0.118364616,0.036928842,0,0
0.086229478,0.000288162,0.111482198,0.133778637,0.001905541,0,0.03674252,2.27928E-06,0.00016034,0.00016034,0.111770359,0.133906909,0.037030682,0,0
0.096229478,0.00035884,0.124410746,0.149292895,0.002370693,0,0.03678619,3.16406E-06,0.000199703,0.000199703,0.124769586,0.149452658,0.03714503,0,0
0.106229478,0.00043711,0.136553716,0.163864459,0.002885068,0,0.03683454,4.25146E-06,0.000243306,0.000243306,0.136990826,0.164059104,0.03727165,0,0
0.116229478,0.000522409,0.148221199,0.177865439,0.003444792,0,0.036887225,5.56077E-06,0.00029084,0.00029084,0.148743608,0.17809811,0.037409634,0,0
0.126229478,0.000614685,0.159888682,0.191866418,0.004049377,0,0.036944216,7.11035E-06,0.000342275,0.000342275,0.160503366,0.192140238,0.037558901,0,0
0.136229478,0.000713934,0.171556165,0.205867397,0.004698685,0,0.037005519,8.91849E-06,0.000397614,0.000397614,0.172270099,0.206185489,0.037719453,0,0
0.146229478,0.000820156,0.183223647,0.219868377,0.005392577,0,0.037071143,1.10034E-05,0.000456857,0.000456857,0.184043803,0.220233863,0.037891299,0,0
0.156229478,0.000933347,0.19489113,0.233869356,0.006130914,0,0.037141097,1.3383E-05,0.000520006,0.000520006,0.195824477,0.234285361,0.038074444,0,0
0.166229478,0.001053507,0.206558613,0.247870336,0.00691356,0,0.03721539,1.60756E-05,0.000587061,0.000587061,0.20761212,0.248339984,0.038268897,0,0
0.176229478,0.001180633,0.218226096,0.261871315,0.007740378,0,0.037294036,1.90989E-05,0.000658023,0.000658023,0.219406729,0.262397733,0.038474669,0,0
0.186229478,0.001314723,0.229893579,0.275872294,0.008611231,0,0.037377049,2.24707E-05,0.000732893,0.000732893,0.231208302,0.276458609,0.038691772,0,0
0.196229478,0.001455776,0.241561061,0.289873274,0.009525982,0,0.037464442,2.6209E-05,0.000811673,0.000811673,0.243016838,0.290522612,0.038920218,0,0
0.206229478,0.001603655,0.252500436,0.303000523,0.0104836,0,0.037556146,3.03312E-05,0.000894289,0.000894289,0.254104091,0.303715954,0.039159801,0,0
0.216229478,0.00175784,0.262999108,0.315598929,0.011480502,0,0.037651849,3.48538E-05,0.000980453,0.000980453,0.264756947,0.316383292,0.039409688,0,0
0.226229478,0.00191828,0.273497779,0.328197335,0.012516245,0,0.037751534,3.97924E-05,0.00107014,0.00107014,0.275416059,0.329053447,0.039669814,0,0
0.236229478,0.002084974,0.283996451,0.340795741,0.01359071,0,0.037855222,4.51624E-05,0.001163351,0.001163351,0.286081425,0.341726422,0.039940197,0,0
0.246229478,0.002257921,0.294495123,0.353394147,0.014703777,0,0.037962932,5.09794E-05,0.001260086,0.001260086,0.296753043,0.354402216,0.040220853,0,0
0.256229478,0.002437118,0.304993794,0.365992553,0.015855326,0,0.038074684,5.72586E-05,0.001360347,0.001360347,0.307430912,0.36708083,0.040511802,0,0
0.266229478,0.002622564,0.315492466,0.378590959,0.01704524,0,0.0381905,6.40153E-05,0.001464133,0.001464133,0.31811503,0.379762266,0.040813064,0,0
0.276229478,0.002814257,0.325991138,0.391189365,0.018273401,0,0.038310404,7.12648E-05,0.001571447,0.001571447,0.328805395,0.392446523,0.041124661,0,0
0.286229478,0.003012196,0.336489809,0.403787771,0.019539689,0,0.038434419,7.90222E-05,0.00168229,0.00168229,0.339502005,0.405133603,0.041446614,0,0
0.296229478,0.003216378,0.346988481,0.416386177,0.020843988,0,0.038562571,8.73025E-05,0.001796661,0.001796661,0.350204859,0.417823506,0.041778949,0,0
0.306229478,0.003426677,0.356812777,0.428175332,0.022185349,0,0.038694804,9.61207E-05,0.001914493,0.001914493,0.360239454,0.429706926,0.042121481,0,0
0.316229478,0.003642613,0.366228893,0.439474671,0.023560465,0,0.038830829,0.000105491,0.00203552,0.00203552,0.369871505,0.441103087,0.042473442,0,0
0.326229478,0.003864137,0.375645008,0.45077401,0.024968932,0,0.038970643,0.000115425,0.002159717,0.002159717,0.379509146,0.452501784,0.04283478,0,0
0.336229478,0.00409125,0.385061124,0.462073349,0.02641065,0,0.039114271,0.000125938,0.002287086,0.002287086,0.389152374,0.463903018,0.043205521,0,0
0.346229478,0.004323949,0.39447724,0.473372688,0.027885514,0,0.039261743,0.000137041,0.002417628,0.002417628,0.398801189,0.47530679,0.043585692,0,0
0.356229478,0.004562232,0.403893356,0.484672027,0.029393424,0,0.039413086,0.000148748,0.002551342,0.002551342,0.408455588,0.4867131,0.043975318,0,0
0.366229478,0.004806099,0.413309471,0.495971366,0.030934278,0,0.03956833,0.000161071,0.002688231,0.002688231,0.418115571,0.49812195,0.044374429,0,0
0.376229478,0.005055548,0.422725587,0.507270705,0.032507975,0,0.039727505,0.000174024,0.002828294,0.002828294,0.427781135,0.50953334,0.044783053,0,0
0.386229478,0.005310576,0.432141703,0.518570044,0.034114414,0,0.039890644,0.000187618,0.002971533,0.002971533,0.437452279,0.52094727,0.045201221,0,0
0.396229478,0.005571184,0.441557819,0.529869383,0.035753494,0,0.040057779,0.000201867,0.003117948,0.003117948,0.447129003,0.532363741,0.045628963,0,0
0.406229478,0.005837253,0.450349782,0.540419738,0.037424347,0,0.040228865,0.000216783,0.003267476,0.003267476,0.456187035,0.54303372,0.046066118,0,0
0.416229478,0.006108338,0.458763964,0.550516757,0.039123918,0,0.040403631,0.000232378,0.003419872,0.003419872,0.464872302,0.553252654,0.046511969,0,0
0.426229478,0.006384397,0.467178146,0.560613775,0.040851843,0,0.04058208,0.000248662,0.003575111,0.003575111,0.473562543,0.563473864,0.046966477,0,0
0.436229478,0.006665427,0.475592328,0.570710793,0.042608035,0,0.040764245,0.000265646,0.003733197,0.003733197,0.482257755,0.573697351,0.047429672,0,0
0.446229478,0.006951428,0.484006509,0.580807811,0.044392409,0,0.040950159,0.000283341,0.003894128,0.003894128,0.490957938,0.583923114,0.047901587,0,0
0.456229478,0.007242399,0.492420691,0.59090483,0.046204878,0,0.041139856,0.000301757,0.004057906,0.004057906,0.49966309,0.594151155,0.048382254,0,0
0.466229478,0.007538337,0.500834873,0.601001848,0.048045356,0,0.041333371,0.000320906,0.004224532,0.004224532,0.50837321,0.604381473,0.048871708,0,0
0.476229478,0.007839241,0.509249055,0.611098866,0.049913757,0,0.04153074,0.000340797,0.004394006,0.004394006,0.517088296,0.61461407,0.049369982,0,0
0.486229478,0.008145111,0.517663237,0.621195884,0.051809996,0,0.041732,0.000361441,0.004566328,0.004566328,0.525808348,0.624848947,0.049877111,0,0
0.496229478,0.008455945,0.526077419,0.631292902,0.053733988,0,0.041937189,0.000382849,0.0047415,0.0047415,0.534533363,0.635086103,0.050393133,0,0
0.506229478,0.008771634,0.533914376,0.640697252,0.055684938,0,0.042146267,0.000405031,0.004919464,0.004919464,0.54268601,0.644632823,0.050917902,0,0
0.516229478,0.009091767,0.541401957,0.649682349,0.057660028,0,0.04235898,0.000427997,0.00509999,0.00509999,0.550493724,0.653762341,0.051450747,0,0
0.526229478,0.009416304,0.548889538,0.658667446,0.059658929,0,0.042575334,0.000451754,0.00528306,0.00528306,0.558305842,0.662893893,0.051991638,0,0
0.536229478,0.009745244,0.556377119,0.667652543,0.06168157,0,0.042795367,0.000476313,0.005468672,0.005468672,0.566122363,0.672027481,0.052540611,0,0
0.546229478,0.010078586,0.5638647,0.67663764,0.063727878,0,0.043019114,0.000501681,0.005656829,0.005656829,0.573943286,0.681163103,0.0530977,0,0
0.556229478,0.010416328,0.57135228,0.685622737,0.065797781,0,0.043246614,0.000527867,0.00584753,0.00584753,0.581768609,0.690300761,0.053662942,0,0
0.566229478,0.01075847,0.578839861,0.694607834,0.067891207,0,0.043477905,0.00055488,0.006040777,0.006040777,0.589598331,0.699440455,0.054236375,0,0
0.576229478,0.01110501,0.586327442,0.70359293,0.070008085,0,0.043713026,0.000582729,0.006236569,0.006236569,0.597432452,0.708582186,0.054818036,0,0
0.586229478,0.011455947,0.593815023,0.712578027,0.072148344,0,0.043952018,0.000611421,0.006434907,0.006434907,0.60527097,0.717725953,0.055407965,0,0
0.596229478,0.01181128,0.601302604,0.721563124,0.074311912,0,0.044194921,0.000640966,0.006635793,0.006635793,0.613113883,0.726871759,0.056006201,0,0
0.606229478,0.012170908,0.608256796,0.729908155,0.076498063,0,0.044441702,0.000671372,0.006839172,0.006839172,0.620427704,0.735379493,0.056612611,0,0
0.616229478,0.012534452,0.614888144,0.737865773,0.078704199,0,0.044692116,0.000702647,0.007044833,0.007044833,0.627422596,0.743501639,0.057226568,0,0
0.626229478,0.012901875,0.621519492,0.74582339,0.080930026,0,0.044946172,0.000734797,0.007252757,0.007252757,0.634421367,0.751625595,0.057848047,0,0
0.636229478,0.013273176,0.628150839,0.753781007,0.083175483,0,0.04520391,0.000767829,0.007462945,0.007462945,0.641424015,0.759751363,0.058477086,0,0
0.646229478,0.013648353,0.634782187,0.761738625,0.085440512,0,0.045465369,0.00080175,0.007675398,0.007675398,0.64843054,0.767878943,0.059113722,0,0
0.656229478,0.014027406,0.641413535,0.769696242,0.087725053,0,0.045730588,0.000836567,0.007890116,0.007890116,0.655440941,0.776008334,0.059757994,0,0
0.666229478,0.014410334,0.648044883,0.777653859,0.090029047,0,0.045999608,0.000872288,0.008107099,0.008107099,0.662455216,0.784139538,0.060409942,0,0
0.676229478,0.014797135,0.654676231,0.785611477,0.092352437,0,0.046272471,0.000908918,0.008326348,0.008326348,0.669473365,0.792272555,0.061069606,0,0
0.686229478,0.015187809,0.661307578,0.793569094,0.094695162,0,0.046549217,0.000946464,0.008547863,0.008547863,0.676495387,0.800407385,0.061737026,0,0
0.696229478,0.015582354,0.667938926,0.801526711,0.097057165,0,0.04682989,0.000984934,0.008771646,0.008771646,0.68352128,0.808544028,0.062412244,0,0
0.706229478,0.015980679,0.674077818,0.808893382,0.099437782,0,0.04711446,0.001024334,0.008997646,0.008997646,0.690058497,0.816091499,0.063095139,0,0
0.716229478,0.016382432,0.679918641,0.815902369,0.101834623,0,0.047402688,0.001064669,0.009225669,0.009225669,0.696301073,0.823282905,0.06378512,0,0
0.726229478,0.016787579,0.685759464,0.822911357,0.104247421,0,0.047694587,0.001105945,0.009455697,0.009455697,0.702547043,0.830475914,0.064482166,0,0
0.736229478,0.01719612,0.691600287,0.829920345,0.10667613,0,0.047990197,0.001148168,0.00968773,0.00968773,0.708796407,0.837670529,0.065186317,0,0
0.746229478,0.017608053,0.69744111,0.836929332,0.109120701,0,0.048289557,0.001191343,0.009921769,0.009921769,0.715049163,0.844866748,0.06589761,0,0
0.756229478,0.018023378,0.703281933,0.84393832,0.111581088,0,0.048592709,0.001235474,0.010157815,0.010157815,0.721305312,0.852064572,0.066616087,0,0
0.766229478,0.018442094,0.709122756,0.850947307,0.114057242,0,0.048899693,0.001280568,0.010395868,0.010395868,0.72756485,0.859264002,0.067341787,0,0
0.776229478,0.0188642,0.714963579,0.857956295,0.116549117,0,0.049210551,0.001326629,0.010635928,0.010635928,0.733827779,0.866465037,0.068074751,0,0
0.786229478,0.019289695,0.720804402,0.864965283,0.119056666,0,0.049525326,0.001373663,0.010877996,0.010877996,0.740094097,0.873667679,0.068815021,0,0
0.796229478,0.019718578,0.726645225,0.87197427,0.121579842,0,0.049844061,0.001421674,0.011122072,0.011122072,0.746363803,0.880871928,0.069562639,0,0
0.806229478,0.020150764,0.732031801,0.878438162,0.124118038,0,0.050166728,0.001470668,0.01136811,0.01136811,0.752182565,0.88753265,0.070317492,0,0
0.816229478,0.020585929,0.737143435,0.884572122,0.126669059,0,0.050493093,0.00152065,0.011615932,0.011615932,0.757729364,0.893864868,0.071079022,0,0
0.826229478,0.021024043,0.742255069,0.890706083,0.129232665,0,0.050823171,0.001571622,0.011865519,0.011865519,0.763279111,0.900198498,0.071847214,0,0
0.836229478,0.021465103,0.747366703,0.896840043,0.131808819,0,0.051157,0.00162359,0.012116874,0.012116874,0.768831806,0.906533543,0.072622104,0,0
0.846229478,0.021909111,0.752478337,0.902974004,0.134397484,0,0.051494621,0.001676557,0.012369996,0.012369996,0.774387447,0.912870001,0.073403732,0,0
0.856229478,0.022356064,0.75758997,0.909107964,0.136998623,0,0.051836074,0.001730526,0.012624886,0.012624886,0.779946034,0.919207873,0.074192138,0,0
0.866229478,0.022805962,0.762701604,0.915241925,0.1396122,0,0.052181399,0.001785501,0.012881544,0.012881544,0.785507566,0.92554716,0.074987361,0,0
0.876229478,0.023258805,0.767813238,0.921375885,0.142238177,0,0.052530639,0.001841487,0.01313997,0.01313997,0.791072043,0.931887862,0.075789444,0,0
0.886229478,0.023714591,0.772924872,0.927509846,0.144876519,0,0.052883834,0.001898487,0.013400165,0.013400165,0.796639463,0.938229978,0.076598425,0,0
0.896229478,0.02417332,0.778036505,0.933643807,0.147527188,0,0.053241028,0.001956505,0.01366213,0.01366213,0.802209825,0.94457351,0.077414348,0,0
0.906229478,0.024634914,0.782729546,0.939275455,0.150189633,0,0.053602194,0.002015545,0.013925821,0.013925821,0.807364459,0.950416112,0.078237108,0,0
0.916229478,0.025099073,0.787169223,0.944603068,0.152861837,0,0.053967102,0.002075609,0.014191074,0.014191074,0.812268297,0.955955927,0.079066175,0,0
0.926229478,0.02556577,0.791608901,0.949930681,0.155543585,0,0.054335764,0.0021367,0.014457872,0.014457872,0.817174671,0.961496979,0.079901534,0,0
0.936229478,0.026035004,0.796048579,0.955258295,0.15823485,0,0.05470822,0.002198822,0.014726218,0.014726218,0.822083583,0.967039269,0.080743224,0,0
0.946229478,0.026506774,0.800488257,0.960585908,0.160935605,0,0.055084507,0.002261975,0.014996111,0.014996111,0.826995031,0.972582797,0.081591282,0,0
0.956229478,0.02698108,0.804927934,0.965913521,0.163645822,0,0.055464666,0.002326164,0.015267551,0.015267551,0.831909014,0.978127562,0.082445746,0,0
0.966229478,0.027457921,0.809367612,0.971241134,0.166365474,0,0.055848736,0.00239139,0.015540539,0.015540539,0.836825533,0.983673565,0.083306656,0,0
0.976229478,0.027937295,0.81380729,0.976568748,0.169094534,0,0.056236756,0.002457656,0.015815074,0.015815074,0.841744585,0.989220807,0.084174051,0,0
0.986229478,0.028419204,0.818246968,0.981896361,0.171832974,0,0.056628768,0.002524965,0.016091158,0.016091158,0.846666171,0.994769288,0.085047972,0,0
0.996229478,0.028903645,0.822686645,0.987223974,0.174580767,0,0.057024812,0.002593319,0.016368791,0.016368791,0.851590291,1.000319007,0.085928457,0,0
1,0.029086965,0.824360635,0.989232762,0.175619266,0,0.057175199,0.002619364,0.016473876,0.016473876,0.8534476,1.002411864,0.086262163,0,0
1,0.029086965,0.824360635,0.989232762,0.175619266,0,0.057175199,0.002619364,0.016473876,0.016473876,0.8534476,1.002411864,0.086262163,0,0
1,0.029086965,0.824360635,0.989232762,0.175619266,0,0.057175199,0.002619364,0.016473876,0.016473876,0.8534476,1.002411864,0.086262163,0,0
1.01,0.029574707,0.828181742,0.99381809,0.178378659,0,0.057576683,0.002689161,0.016753539,0.016753539,0.857756449,1.007220922,0.087151391,0,0
1.02,0.030064611,0.832002849,0.998403418,0.181144874,0,0.057981934,0.002760008,0.017034545,0.017034545,0.862067459,1.012031055,0.088046545,0,0
1.03,0.030556674,0.835823955,1.002988746,0.183917893,0,0.058390988,0.002831907,0.017316895,0.017316895,0.866380629,1.016842262,0.088947662,0,0
1.04,0.031050896,0.839645062,1.007574074,0.186697697,0,0.058803881,0.002904858,0.017600588,0.017600588,0.870695958,1.021654545,0.089854777,0,0
1.05,0.031547277,0.843466169,1.012159402,0.189484266,0,0.059220651,0.002978865,0.017885625,0.017885625,0.875013446,1.026467902,0.090767928,0,0
1.06,0.032045817,0.847287275,1.01674473,0.192277582,0,0.059641333,0.003053927,0.018172006,0.018172006,0.879333092,1.031282336,0.09168715,0,0
1.07,0.032546514,0.851108382,1.021330058,0.195077625,0,0.060065968,0.003130046,0.018459732,0.018459732,0.883654896,1.036097844,0.092612481,0,0
1.08,0.033049368,0.854929489,1.025915386,0.197884377,0,0.060494591,0.003207224,0.018748803,0.018748803,0.887978856,1.040914429,0.093543958,0,0
1.09,0.033554378,0.858750595,1.030500714,0.200697819,0,0.060927242,0.003285462,0.019039219,0.019039219,0.892304974,1.04573209,0.09448162,0,0
1.1,0.034061545,0.862571702,1.035086042,0.203517932,0,0.061363959,0.003364762,0.019330981,0.019330981,0.896633247,1.050550827,0.095425504,0,0
1.11,0.034570697,0.865824014,1.038988816,0.206343562,0,0.061804604,0.003445125,0.019623993,0.019623993,0.900394711,1.054688011,0.096375301,0,0
1.12,0.035081662,0.869076325,1.04289159,0.209173558,0,0.062249034,0.003526551,0.019918161,0.019918161,0.904157988,1.058826119,0.097330696,0,0
1.13,0.035594441,0.872328637,1.046794364,0.212007909,0,0.062697283,0.003609041,0.020213486,0.020213486,0.907923078,1.062965153,0.098291724,0,0
1.14,0.036109033,0.875580949,1.050697138,0.214846603,0,0.063149385,0.003692595,0.020509968,0.020509968,0.911689982,1.067105112,0.099258418,0,0
1.15,0.036625437,0.87883326,1.054599912,0.217689629,0,0.063605373,0.003777215,0.020807606,0.020807606,0.915458697,1.071245997,0.10023081,0,0
1.16,0.037143653,0.882085572,1.058502686,0.220536975,0,0.064065282,0.003862899,0.021106402,0.021106402,0.919229225,1.075387808,0.101208936,0,0
1.17,0.037663681,0.885337884,1.06240546,0.22338863,0,0.064529147,0.00394965,0.021406355,0.021406355,0.923001565,1.079530544,0.102192829,0,0
1.18,0.03818552,0.888590195,1.066308234,0.226244584,0,0.064997003,0.004037467,0.021707465,0.021707465,0.926775715,1.083674207,0.103182523,0,0
1.19,0.03870917,0.891842507,1.070211008,0.229104824,0,0.065468886,0.00412635,0.022009734,0.022009734,0.930551677,1.087818795,0.104178055,0,0
1.2,0.03923463,0.895094819,1.074113782,0.23196934,0,0.06594483,0.004216301,0.02231316,0.02231316,0.934329448,1.09196431,0.105179459,0,0
1.21,0.039761742,0.897824727,1.077389673,0.234837076,0,0.066424696,0.004307319,0.022617657,0.022617657,0.93758647,1.095483799,0.106186439,0,0
1.22,0.040290351,0.900554636,1.080665563,0.237706983,0,0.066908342,0.004399404,0.022923139,0.022923139,0.940844988,1.099004075,0.107198693,0,0
1.23,0.040820456,0.903284545,1.083941454,0.240579056,0,0.067395797,0.004492556,0.023229605,0.023229605,0.944105001,1.102525138,0.108216253,0,0
1.24,0.041352056,0.906014454,1.087217345,0.243453289,0,0.067887092,0.004586774,0.023537056,0.023537056,0.94736651,1.106046989,0.109239148,0,0
1.25,0.041885151,0.908744363,1.090493235,0.246329679,0,0.068382258,0.004682059,0.023845492,0.023845492,0.950629513,1.109569628,0.110267409,0,0
1.26,0.04241974,0.911474271,1.093769126,0.24920822,0,0.068881324,0.004778408,0.024154912,0.024154912,0.953894012,1.113093055,0.111301065,0,0
1.27,0.042955824,0.91420418,1.097045016,0.252088909,0,0.069384324,0.004875823,0.024465318,0.024465318,0.957160004,1.116617271,0.112340148,0,0
1.28,0.043493402,0.916934089,1.100320907,0.254971741,0,0.069891286,0.004974303,0.024776709,0.024776709,0.960427491,1.120142274,0.113384688,0,0
1.29,0.044032473,0.919663998,1.103596797,0.257856711,0,0.070402244,0.005073847,0.025089085,0.025089085,0.963696471,1.123668065,0.114434717,0,0
