time,Dendrite passive:1,Input signal,Gain:1,Na prefilter:1,Pulse,Dendrite NL,Soma NL prefilter out,Soma after passive,Vs,Soma input,Input + Vs,Vd,Integrator1:1,Spike Output
0,0,0,0,0,0,0.036564157,0,0,0,0,0,0.036564157,0,0
0.000200951,2.34931E-09,0.0002598,0.000467641,1.56618E-08,0,0.036564158,2.91412E-14,8.70122E-10,8.70122E-10,0.000259803,0.000467641,0.036564161,0,0
0.001205705,8.45743E-08,0.001558802,0.002805844,5.63765E-07,0,0.036564209,6.2938E-12,3.1325E-08,3.1325E-08,0.001558887,0.002805869,0.036564294,0,0
0.006229478,2.25753E-06,0.008053811,0.01449686,1.50414E-05,0,0.036565561,8.67566E-10,8.36282E-07,8.36282E-07,0.008056069,0.014497529,0.036567819,0,0
0.016229478,1.53211E-05,0.020982359,0.037768247,0.000101984,0,0.036573681,1.53243E-08,5.67729E-06,5.67729E-06,0.020997681,0.037772789,0.036589002,0,0
0.026229478,4.00136E-05,0.033910908,0.061039634,0.000266098,0,0.036589013,6.46182E-08,1.48318E-05,1.48318E-05,0.033950921,0.061051499,0.036629026,0,0
0.036229478,7.63312E-05,0.046839456,0.084311021,0.000507138,0,0.036611543,1.70095E-07,2.83022E-05,2.83022E-05,0.046915787,0.084333663,0.036687874,0,0
0.046229478,0.00012427,0.059768004,0.107582408,0.00082486,0,0.036641261,3.53007E-07,4.60909E-05,4.60909E-05,0.059892274,0.107619281,0.03676553,0,0
0.056229478,0.000183825,0.072696553,0.130853795,0.00121902,0,0.036678161,6.34511E-07,6.82004E-05,6.82004E-05,0.072880377,0.130908355,0.036861986,0,0
0.066229478,0.000254993,0.085625101,0.154125182,0.001689375,0,0.036722243,1.03567E-06,9.46332E-05,9.46332E-05,0.085880094,0.154200888,0.036977236,0,0
0.076229478,0.000337769,0.098553649,0.177396569,0.002235683,0,0.03677351,1.57746E-06,0.000125392,0.000125392,0.098891419,0.177496882,0.037111279,0,0
0.086229478,0.000432151,0.111482198,0.200667956,0.002857703,0,0.036831967,2.28076E-06,0.000160478,0.000160478,0.111914348,0.200796338,0.037264117,0,0
0.096229478,0.000538132,0.124410746,0.223939343,0.003555194,0,0.036897626,3.16635E-06,0.000199895,0.000199895,0.124948878,0.224099258,0.037435758,0,0
0.106229478,0.000655492,0.136553716,0.245796689,0.004326465,0,0.036970365,4.25485E-06,0.000243564,0.000243564,0.137209209,0.24599154,0.037625857,0,0
0.116229478,0.000783389,0.148221199,0.266798158,0.005165701,0,0.037049674,5.56562E-06,0.000291177,0.000291177,0.149004588,0.2670311,0.037833063,0,0
0.126229478,0.000921739,0.159888682,0.287799627,0.006072164,0,0.037135525,7.11709E-06,0.000342707,0.000342707,0.160810421,0.288073793,0.038057264,0,0
0.136229478,0.00107054,0.171556165,0.308801096,0.007045641,0,0.037227943,8.92762E-06,0.000398156,0.000398156,0.172626704,0.309119621,0.038298482,0,0
0.146229478,0.001229787,0.183223647,0.329802565,0.008085919,0,0.037326953,1.10155E-05,0.000457527,0.000457527,0.184453434,0.330168587,0.038556739,0,0
0.156229478,0.001399477,0.19489113,0.350804034,0.009192788,0,0.037432586,1.33988E-05,0.000520821,0.000520821,0.196290607,0.351220691,0.038832063,0,0
0.166229478,0.001579607,0.206558613,0.371805503,0.010366035,0,0.037544876,1.60957E-05,0.000588041,0.000588041,0.20813822,0.372275936,0.039124483,0,0
0.176229478,0.001770172,0.218226096,0.392806972,0.011605451,0,0.037663861,1.91242E-05,0.000659188,0.000659188,0.219996268,0.393334323,0.039434033,0,0
0.186229478,0.00197117,0.229893579,0.413808442,0.012910824,0,0.03778958,2.25023E-05,0.000734266,0.000734266,0.231864748,0.414395855,0.039760749,0,0
0.196229478,0.002182596,0.241561061,0.434809911,0.014281948,0,0.037922077,2.62478E-05,0.000813276,0.000813276,0.243743657,0.435460532,0.040104673,0,0
0.206229478,0.002404245,0.252500436,0.454500785,0.015717267,0,0.038061269,3.03784E-05,0.000896146,0.000896146,0.254904681,0.455217701,0.040465514,0,0
0.216229478,0.002635336,0.262999108,0.473398394,0.017211405,0,0.038206701,3.49107E-05,0.000982589,0.000982589,0.265634443,0.474184465,0.040842037,0,0
0.226229478,0.002875793,0.273497779,0.492296003,0.018763693,0,0.038358374,3.98604E-05,0.001072581,0.001072581,0.276373572,0.493154067,0.041234167,0,0
0.236229478,0.003125613,0.283996451,0.511193612,0.020373946,0,0.038516339,4.52431E-05,0.001166124,0.001166124,0.287122064,0.512126511,0.041641952,0,0
0.246229478,0.003384792,0.294495123,0.530091221,0.022041982,0,0.038680649,5.10744E-05,0.001263219,0.001263219,0.297879915,0.531101796,0.042065442,0,0
0.256229478,0.003653329,0.304993794,0.54898883,0.023767618,0,0.038851361,5.73697E-05,0.001363869,0.001363869,0.308647123,0.550079925,0.04250469,0,0
0.266229478,0.003931218,0.315492466,0.567886439,0.02555067,0,0.039028535,6.41445E-05,0.001468075,0.001468075,0.319423684,0.569060899,0.042959753,0,0
0.276229478,0.004218457,0.325991138,0.586784048,0.027390959,0,0.039212231,7.14141E-05,0.00157584,0.00157584,0.330209595,0.588044719,0.043430689,0,0
0.286229478,0.004515043,0.336489809,0.605681657,0.029288302,0,0.039402516,7.91939E-05,0.001687165,0.001687165,0.341004852,0.607031389,0.04391756,0,0
0.296229478,0.004820973,0.346988481,0.624579266,0.031242519,0,0.039599458,8.74989E-05,0.001802052,0.001802052,0.351809453,0.626020907,0.04442043,0,0
0.306229478,0.005136055,0.356812777,0.642262998,0.033252185,0,0.039803,9.63444E-05,0.001920434,0.001920434,0.361948832,0.643799346,0.044939055,0,0
0.316229478,0.005459568,0.366228893,0.659212007,0.035312333,0,0.040012727,0.000105744,0.002042047,0.002042047,0.37168846,0.660845644,0.045472294,0,0
0.326229478,0.00579144,0.375645008,0.676161015,0.037422355,0,0.040228661,0.000115712,0.002166866,0.002166866,0.381436448,0.677894508,0.046020101,0,0
0.336229478,0.00613167,0.385061124,0.693110023,0.039582095,0,0.040450873,0.00012626,0.002294894,0.002294894,0.391192794,0.694945938,0.046582542,0,0
0.346229478,0.006480253,0.39447724,0.710059032,0.041791395,0,0.040679437,0.000137402,0.002426132,0.002426132,0.400957493,0.711999937,0.04715969,0,0
0.356229478,0.006837188,0.403893356,0.72700804,0.044050099,0,0.040914429,0.000149152,0.002560582,0.002560582,0.410730544,0.729056506,0.047751617,0,0
0.366229478,0.007202472,0.413309471,0.743957049,0.046358052,0,0.041155927,0.000161521,0.002698246,0.002698246,0.420511943,0.746115645,0.048358399,0,0
0.376229478,0.007576101,0.422725587,0.760906057,0.048715098,0,0.041404013,0.000174523,0.002839125,0.002839125,0.430301688,0.763177357,0.048980114,0,0
0.386229478,0.007958072,0.432141703,0.777855066,0.051121083,0,0.041658771,0.000188171,0.002983221,0.002983221,0.440099775,0.780241643,0.049616843,0,0
0.396229478,0.008348383,0.441557819,0.794804074,0.053575851,0,0.041920286,0.000202478,0.003130537,0.003130537,0.449906202,0.797308503,0.05026867,0,0
0.406229478,0.008746858,0.450349782,0.810629608,0.056078096,0,0.042188526,0.000217456,0.003281008,0.003281008,0.45909664,0.813254414,0.050935384,0,0
0.416229478,0.009152828,0.458763964,0.825775135,0.058623233,0,0.042463098,0.000233117,0.003434391,0.003434391,0.467916792,0.828522648,0.051615926,0,0
0.426229478,0.009566227,0.467178146,0.840920662,0.061210714,0,0.042744045,0.000249473,0.003590664,0.003590664,0.476744373,0.843793193,0.052310272,0,0
0.436229478,0.009987054,0.475592328,0.85606619,0.063840406,0,0.043031451,0.000266533,0.003749827,0.003749827,0.485579381,0.859066052,0.053018505,0,0
0.446229478,0.010415305,0.484006509,0.871211717,0.066512174,0,0.043325407,0.000284309,0.003911884,0.003911884,0.494421815,0.874341224,0.053740712,0,0
0.456229478,0.010850979,0.492420691,0.886357244,0.069225889,0,0.043626002,0.000302812,0.004076835,0.004076835,0.50327167,0.889618712,0.054476981,0,0
0.466229478,0.011294072,0.500834873,0.901502772,0.071981416,0,0.043933332,0.000322053,0.004244681,0.004244681,0.512128945,0.904898516,0.055227404,0,0
0.476229478,0.011744583,0.509249055,0.916648299,0.074778626,0,0.044247492,0.000342042,0.004415425,0.004415425,0.520993638,0.920180639,0.055992075,0,0
0.486229478,0.012202507,0.517663237,0.931793826,0.077617386,0,0.044568581,0.00036279,0.004589067,0.004589067,0.529865744,0.93546508,0.056771088,0,0
0.496229478,0.012667844,0.526077419,0.946939354,0.080497567,0,0.0448967,0.000384308,0.00476561,0.00476561,0.538745263,0.950751841,0.057564544,0,0
0.506229478,0.01314043,0.533914376,0.961045878,0.083417971,0,0.04523183,0.000406607,0.004944995,0.004944995,0.547054807,0.965001873,0.058372261,0,0
0.516229478,0.013619647,0.541401957,0.974523523,0.086374372,0,0.0455736,0.000429695,0.005126995,0.005126995,0.555021605,0.978625119,0.059193247,0,0
0.526229478,0.014105435,0.548889538,0.988001168,0.089366273,0,0.045922062,0.000453583,0.005311591,0.005311591,0.562994973,0.992250442,0.060027497,0,0
0.536229478,0.014597792,0.556377119,1.001478814,0.092393563,0,0.046277315,0.000478278,0.005498785,0.005498785,0.570974911,1.005877842,0.060875107,0,0
0.546229478,0.015096715,0.5638647,1.014956459,0.095456131,0,0.046639461,0.000503791,0.005688576,0.005688576,0.578961414,1.01950732,0.061736175,0,0
0.556229478,0.015602202,0.57135228,1.028434105,0.098553867,0,0.047008602,0.000530129,0.005880967,0.005880967,0.586954482,1.033138878,0.062610803,0,0
0.566229478,0.01611425,0.578839861,1.04191175,0.101686661,0,0.047384845,0.000557302,0.006075959,0.006075959,0.594954112,1.046772517,0.063499095,0,0
0.576229478,0.016632859,0.586327442,1.055389396,0.104854403,0,0.047768297,0.000585319,0.006273553,0.006273553,0.602960301,1.060408238,0.064401156,0,0
0.586229478,0.017158025,0.593815023,1.068867041,0.108056983,0,0.04815907,0.000614187,0.00647375,0.00647375,0.610973048,1.074046041,0.065317095,0,0
0.596229478,0.017689746,0.601302604,1.082344687,0.111294294,0,0.048557276,0.000643917,0.006676553,0.006676553,0.61899235,1.087685929,0.066247022,0,0
0.606229478,0.018227873,0.608256796,1.094862233,0.114565239,0,0.048962908,0.000674517,0.006881907,0.006881907,0.626484669,1.100367758,0.06719078,0,0
0.616229478,0.018771832,0.614888144,1.106798659,0.117865925,0,0.049375605,0.000705994,0.007089602,0.007089602,0.633659976,1.11247034,0.068147438,0,0
0.626229478,0.01932157,0.621519492,1.118735085,0.121195905,0,0.049795431,0.000738355,0.00729962,0.00729962,0.640841062,1.124574781,0.069117002,0,0
0.636229478,0.019877085,0.628150839,1.130671511,0.124555087,0,0.050222494,0.000771609,0.007511963,0.007511963,0.648027924,1.136681081,0.070099579,0,0
0.646229478,0.020438374,0.634782187,1.142607937,0.127943381,0,0.050656905,0.000805761,0.007726632,0.007726632,0.655220561,1.148789242,0.071095279,0,0
0.656229478,0.021005435,0.641413535,1.154544363,0.131360696,0,0.051098776,0.00084082,0.007943626,0.007943626,0.66241897,1.160899264,0.072104212,0,0
0.666229478,0.021578267,0.648044883,1.166480789,0.134806942,0,0.051548224,0.000876791,0.008162949,0.008162949,0.66962315,1.173011148,0.073126491,0,0
0.676229478,0.022156867,0.654676231,1.178417215,0.138282028,0,0.052005365,0.000913684,0.0083846,0.0083846,0.676833098,1.185124895,0.074162233,0,0
0.686229478,0.022741234,0.661307578,1.190353641,0.141785864,0,0.052470321,0.000951503,0.008608581,0.008608581,0.684048813,1.197240506,0.075211555,0,0
0.696229478,0.023331366,0.667938926,1.202290067,0.145318362,0,0.052943212,0.000990257,0.008834894,0.008834894,0.691270292,1.209357982,0.076274578,0,0
0.706229478,0.023927124,0.674077818,1.213340073,0.148878522,0,0.05342404,0.001029952,0.009063488,0.009063488,0.698004942,1.220590863,0.077351164,0,0
0.716229478,0.02452798,0.679918641,1.223853554,0.152462759,0,0.05391245,0.001070594,0.00929417,0.00929417,0.704446621,1.231288891,0.07844043,0,0
0.726229478,0.025133884,0.685759464,1.234367036,0.156070672,0,0.054408513,0.001112189,0.009526924,0.009526924,0.710893348,1.241988574,0.079542398,0,0
0.736229478,0.025744834,0.691600287,1.244880517,0.159702188,0,0.054912345,0.001154743,0.009761748,0.009761748,0.717345121,1.252689916,0.08065718,0,0
0.746229478,0.026360829,0.69744111,1.255393998,0.163357233,0,0.055424064,0.001198261,0.009998646,0.009998646,0.723801939,1.263392915,0.081784893,0,0
0.756229478,0.026981866,0.703281933,1.26590748,0.167035735,0,0.05594379,0.001242749,0.010237618,0.010237618,0.730263799,1.274097574,0.082925656,0,0
0.766229478,0.027607944,0.709122756,1.276420961,0.170737621,0,0.056471646,0.001288212,0.010478664,0.010478664,0.7367307,1.284803892,0.08407959,0,0
0.776229478,0.028239061,0.714963579,1.286934443,0.174462819,0,0.057007756,0.001334655,0.010721786,0.010721786,0.74320264,1.295511871,0.085246817,0,0
0.786229478,0.028875216,0.720804402,1.297447924,0.178211257,0,0.057552248,0.001382085,0.010966985,0.010966985,0.749679618,1.306221512,0.086427464,0,0
0.796229478,0.029516407,0.726645225,1.307961405,0.181982863,0,0.058105251,0.001430506,0.011214261,0.011214261,0.756161632,1.316932814,0.087621658,0,0
0.806229478,0.030162506,0.732031801,1.317657242,0.185776727,0,0.058666771,0.001479924,0.01146357,0.01146357,0.762194307,1.326828098,0.088829277,0,0
0.816229478,0.030813027,0.737143435,1.326858183,0.189589552,0,0.059236454,0.001530344,0.011714732,0.011714732,0.767956462,1.336229969,0.090049481,0,0
0.826229478,0.031467922,0.742255069,1.336059124,0.193420978,0,0.059814376,0.001581769,0.011967731,0.011967731,0.773722991,1.345633309,0.091282299,0,0
0.836229478,0.032127192,0.747366703,1.345260065,0.197270948,0,0.060400658,0.001634205,0.012222569,0.012222569,0.779493894,1.35503812,0.09252785,0,0
0.846229478,0.032790833,0.752478337,1.354461006,0.201139406,0,0.060995423,0.001687654,0.012479246,0.012479246,0.785269169,1.364444403,0.093786256,0,0
0.856229478,0.033458845,0.75758997,1.363661947,0.205026296,0,0.061598798,0.001742122,0.012737763,0.012737763,0.791048815,1.373852157,0.095057642,0,0
0.866229478,0.034131226,0.762701604,1.372862887,0.20893156,0,0.062210908,0.001797612,0.01299812,0.01299812,0.79683283,1.383261384,0.096342134,0,0
0.876229478,0.034807974,0.767813238,1.382063828,0.212855143,0,0.062831884,0.001854129,0.013260319,0.013260319,0.802621212,1.392672084,0.097639859,0,0
0.886229478,0.035489089,0.772924872,1.391264769,0.216796988,0,0.063461858,0.001911675,0.013524361,0.013524361,0.808413961,1.402084258,0.098950947,0,0
0.896229478,0.036174569,0.778036505,1.40046571,0.220757039,0,0.064100963,0.001970257,0.013790246,0.013790246,0.814211075,1.411497907,0.100275532,0,0
0.906229478,0.036864296,0.782729546,1.408913182,0.224734468,0,0.064749208,0.002029877,0.014057932,0.014057932,0.819593842,1.420159528,0.101613504,0,0
0.916229478,0.037557822,0.787169223,1.416904602,0.228726247,0,0.065406236,0.002090538,0.014327255,0.014327255,0.824727046,1.428366406,0.102964058,0,0
0.926229478,0.038255104,0.791608901,1.424896022,0.232732055,0,0.066072125,0.002152245,0.014598199,0.014598199,0.829864005,1.436574581,0.104327229,0,0
0.936229478,0.038956141,0.796048579,1.432887442,0.23675185,0,0.066746999,0.002214999,0.014870766,0.014870766,0.83500472,1.444784054,0.10570314,0,0
0.946229478,0.039660932,0.800488257,1.440878862,0.240785589,0,0.067430984,0.002278803,0.015144955,0.015144955,0.840149188,1.452994826,0.107091916,0,0
0.956229478,0.040369475,0.804927934,1.448870282,0.244833231,0,0.068124208,0.002343661,0.015420769,0.015420769,0.845297409,1.461206897,0.108493683,0,0
0.966229478,0.041081769,0.809367612,1.456861702,0.248894733,0,0.068826801,0.002409575,0.015698207,0.015698207,0.850449381,1.469420267,0.10990857,0,0
0.976229478,0.041797813,0.81380729,1.464853122,0.252970054,0,0.069538896,0.002476549,0.01597727,0.01597727,0.855605103,1.477634937,0.111336709,0,0
0.986229478,0.042517606,0.818246968,1.472844542,0.257059152,0,0.070260625,0.002544584,0.016257959,0.016257959,0.860764573,1.485850909,0.11277823,0,0
0.996229478,0.043241146,0.822686645,1.480835961,0.261161985,0,0.070992124,0.002613683,0.016540274,0.016540274,0.865927791,1.494068181,0.11423327,0,0
1,0.043514934,0.824360635,1.483849144,0.262712547,0,0.071270507,0.002640014,0.016647146,0.016647146,0.867875569,1.49716686,0.114785441,0,0
1,0.043514934,0.824360635,1.483849144,0.262712547,0,0.071270507,0.002640014,0.016647146,0.016647146,0.867875569,1.49716686,0.114785441,0,0
1,0.043514934,0.824360635,1.483849144,0.262712547,0,0.071270507,0.002640014,0.016647146,0.016647146,0.867875569,1.49716686,0.114785441,0,0
1.01,0.044243354,0.828181742,1.490727136,0.266832373,0,0.07201535,0.002710585,0.016931599,0.016931599,0.872425096,1.504272415,0.116258704,0,0
1.02,0.044974963,0.832002849,1.497605128,0.270962137,0,0.072769608,0.002782225,0.017217475,0.017217475,0.876977811,1.511379108,0.11774457,0,0
1.03,0.045709758,0.835823955,1.50448312,0.27510181,0,0.073533405,0.002854938,0.017504773,0.017504773,0.881533714,1.518486938,0.119243163,0,0
1.04,0.04644774,0.839645062,1.511361112,0.279251362,0,0.074306866,0.002928724,0.017793494,0.017793494,0.886092802,1.525595907,0.120754605,0,0
1.05,0.047188906,0.843466169,1.518239104,0.283410764,0,0.075090118,0.003003586,0.01808364,0.01808364,0.890655075,1.532706015,0.122279024,0,0
1.06,0.047933256,0.847287275,1.525117096,0.287579987,0,0.075883291,0.003079525,0.018375209,0.018375209,0.895220532,1.539817263,0.123816547,0,0
1.07,0.04868079,0.851108382,1.531995088,0.291759003,0,0.076686514,0.003156543,0.018668203,0.018668203,0.899789172,1.54692965,0.125367303,0,0
1.08,0.049431505,0.854929489,1.53887308,0.295947782,0,0.077499919,0.003234642,0.018962623,0.018962623,0.904360994,1.554043178,0.126931424,0,0
1.09,0.050185401,0.858750595,1.545751072,0.300146296,0,0.07832364,0.003313824,0.019258469,0.019258469,0.908935996,1.561157847,0.128509041,0,0
1.1,0.050942477,0.862571702,1.552629064,0.304354516,0,0.079157814,0.003394089,0.019555742,0.019555742,0.913514179,1.568273657,0.130100291,0,0
1.11,0.051702476,0.865824014,1.558483225,0.308570709,0,0.080002233,0.003475441,0.019854347,0.019854347,0.91752649,1.574366702,0.131704709,0,0
1.12,0.052465141,0.869076325,1.564337386,0.31279315,0,0.080856682,0.003557879,0.02015419,0.02015419,0.921541466,1.580460738,0.133321823,0,0
1.13,0.053230471,0.872328637,1.570191547,0.317021821,0,0.081721281,0.003641404,0.020455272,0.020455272,0.925559108,1.586555764,0.134951752,0,0
1.14,0.053998466,0.875580949,1.576045708,0.321256704,0,0.082596154,0.003726018,0.020757593,0.020757593,0.929579415,1.592651782,0.13659462,0,0
1.15,0.054769124,0.87883326,1.581899869,0.325497782,0,0.083481425,0.00381172,0.021061153,0.021061153,0.933602385,1.598748791,0.138250549,0,0
1.16,0.055542445,0.882085572,1.58775403,0.329745038,0,0.08437722,0.003898512,0.021365954,0.021365954,0.937628017,1.604846792,0.139919665,0,0
1.17,0.056318428,0.885337884,1.593608191,0.333998455,0,0.085283665,0.003986395,0.021671995,0.021671995,0.941656312,1.610945786,0.141602094,0,0
1.18,0.057097072,0.888590195,1.599462351,0.338258015,0,0.08620089,0.004075368,0.021979277,0.021979277,0.945687268,1.617045773,0.143297963,0,0
1.19,0.057878377,0.891842507,1.605316512,0.342523701,0,0.087129025,0.004165434,0.0222878,0.0222878,0.949720884,1.623146753,0.145007402,0,0
1.2,0.058662341,0.895094819,1.611170673,0.346795496,0,0.088068202,0.004256592,0.022597566,0.022597566,0.953757159,1.629248726,0.146730542,0,0
1.21,0.059448728,0.897824727,1.616084509,0.351071818,0,0.089018203,0.004348844,0.022908486,0.022908486,0.957273455,1.634411298,0.148466931,0,0
1.22,0.060237303,0.900554636,1.620998345,0.35535109,0,0.089978801,0.004442189,0.023220476,0.023220476,0.960791939,1.639574726,0.150216104,0,0
1.23,0.061028065,0.903284545,1.625912181,0.359633306,0,0.090950113,0.004536627,0.023533534,0.023533534,0.96431261,1.644739008,0.151978178,0,0
1.24,0.061821014,0.906014454,1.630826017,0.363918459,0,0.091932254,0.004632158,0.023847662,0.023847662,0.967835467,1.649904146,0.153753268,0,0
1.25,0.062616148,0.908744363,1.635739853,0.368206542,0,0.092925345,0.004728782,0.024162859,0.024162859,0.971360511,1.65507014,0.155541493,0,0
1.26,0.063413467,0.911474271,1.640653688,0.372497548,0,0.093929505,0.004826499,0.024479127,0.024479127,0.974887739,1.66023699,0.157342973,0,0
1.27,0.064212971,0.91420418,1.645567524,0.376791469,0,0.094944855,0.004925308,0.024796465,0.024796465,0.978417151,1.665404697,0.159157826,0,0
1.28,0.065014659,0.916934089,1.65048136,0.3810883,0,0.095971517,0.00502521,0.025114874,0.025114874,0.981948748,1.67057326,0.160986175,0,0
1.29,0.06581853,0.919663998,1.655395196,0.385388034,0,0.097009613,0.005126205,0.025434355,0.025434355,0.985482527,1.67574268,0.162828143,0,0
